# D15, g_21-mode 
# time (s), frequency (Hz) 
  1.01800310E-01   5.99708770E+01 
  1.03800460E-01   6.01173010E+01 
  1.05800050E-01   6.02710280E+01 
  1.07800520E-01   6.04156310E+01 
  1.09800850E-01   6.05568790E+01 
  1.11800010E-01   6.06929390E+01 
  1.13800840E-01   6.08353850E+01 
  1.15800530E-01   6.09685210E+01 
  1.17800030E-01   6.11072270E+01 
  1.19800250E-01   6.12390540E+01 
  1.21800260E-01   6.13820970E+01 
  1.23800860E-01   6.15129380E+01 
  1.25800170E-01   6.16462620E+01 
  1.27800090E-01   6.17724530E+01 
  1.29800790E-01   6.18944690E+01 
  1.31800440E-01   6.20292740E+01 
  1.33800880E-01   6.21581760E+01 
  1.35800270E-01   6.22924020E+01 
  1.37800390E-01   6.24037160E+01 
  1.39800460E-01   6.25179270E+01 
  1.41800390E-01   6.26210730E+01 
  1.43800310E-01   6.27459540E+01 
  1.45800120E-01   6.28698920E+01 
  1.47800320E-01   6.29859280E+01 
  1.49800210E-01   6.30894350E+01 
  1.51800850E-01   6.31928060E+01 
  1.53800670E-01   6.33059920E+01 
  1.55800480E-01   6.34018500E+01 
  1.57800300E-01   6.35054230E+01 
  1.59800100E-01   6.36069850E+01 
  1.61800000E-01   6.36892470E+01 
  1.63800020E-01   6.37924680E+01 
  1.65800220E-01   6.38994250E+01 
  1.67800520E-01   6.40034470E+01 
  1.69800410E-01   6.40864540E+01 
  1.71800080E-01   6.41809920E+01 
  1.73800190E-01   6.42711550E+01 
  1.75800420E-01   6.43692790E+01 
  1.77800660E-01   6.44553670E+01 
  1.79800120E-01   6.45414390E+01 
  1.81800430E-01   6.46274880E+01 
  1.83800480E-01   6.46950010E+01 
  1.85800370E-01   6.47916980E+01 
  1.87800820E-01   6.48485870E+01 
  1.89800160E-01   6.49304070E+01 
  1.91800110E-01   6.50217570E+01 
  1.93800690E-01   6.51054990E+01 
  1.95800310E-01   6.51832090E+01 
  1.97800630E-01   6.52474560E+01 
  1.99800170E-01   6.53293860E+01 
  2.01800750E-01   6.53884370E+01 
  2.03800800E-01   6.54519890E+01 
  2.05800300E-01   6.55225900E+01 
  2.07800130E-01   6.55653960E+01 
  2.09800290E-01   6.56708400E+01 
  2.11800570E-01   6.57257870E+01 
  2.13800590E-01   6.58053370E+01 
  2.15800420E-01   6.58792750E+01 
  2.17800080E-01   6.59645570E+01 
  2.19800140E-01   6.60516880E+01 
  2.21800500E-01   6.61409080E+01 
  2.23800520E-01   6.61972560E+01 
  2.25800530E-01   6.62650860E+01 
  2.27800560E-01   6.63351010E+01 
  2.29800630E-01   6.64313620E+01 
  2.31800040E-01   6.64740360E+01 
  2.33800340E-01   6.65396560E+01 
  2.35800080E-01   6.66391240E+01 
  2.37800720E-01   6.66533450E+01 
  2.39800220E-01   6.67125810E+01 
  2.41800160E-01   6.67697000E+01 
  2.43800010E-01   6.68550250E+01 
  2.45800600E-01   6.68991770E+01 
  2.47800200E-01   6.69186970E+01 
  2.49800080E-01   6.69490400E+01 
  2.51800420E-01   6.70076830E+01 
  2.53800180E-01   6.70332780E+01 
  2.55800590E-01   6.70611160E+01 
  2.57800670E-01   6.71078490E+01 
  2.59800190E-01   6.71263120E+01 
  2.61800250E-01   6.71127920E+01 
  2.63800370E-01   6.71170090E+01 
  2.65800070E-01   6.71516780E+01 
  2.67800680E-01   6.71601550E+01 
  2.69800000E-01   6.72209870E+01 
  2.71800280E-01   6.72046080E+01 
  2.73800510E-01   6.72212090E+01 
  2.75800470E-01   6.64352160E+01 
  2.77800180E-01   6.56617170E+01 
  2.79800550E-01   6.50221500E+01 
  2.81800120E-01   6.43748710E+01 
  2.83800630E-01   6.36752210E+01 
  2.85800290E-01   6.30242230E+01 
  2.87800000E-01   6.21826810E+01 
  2.89800410E-01   6.12087350E+01 
  2.91800070E-01   6.01083990E+01 
  2.93800600E-01   5.91590840E+01 
  2.95800380E-01   5.92257210E+01 
  2.97800600E-01   5.91638020E+01 
  2.99800400E-01   5.88725760E+01 
  3.01800920E-01   5.83479910E+01 
  3.03800040E-01   5.74353790E+01 
  3.05800940E-01   5.63066360E+01 
  3.07800340E-01   5.54030860E+01 
  3.09800000E-01   5.49249380E+01 
  3.11800760E-01   5.44045990E+01 
  3.13800720E-01   5.32648840E+01 
  3.15800260E-01   5.22201650E+01 
  3.17800520E-01   5.16223450E+01 
  3.19800530E-01   5.14490190E+01 
  3.21800670E-01   5.15771980E+01 
  3.23801050E-01   5.16737890E+01 
  3.25800090E-01   5.17321440E+01 
  3.27801020E-01   5.17303450E+01 
  3.29800910E-01   5.16986120E+01 
  3.31800370E-01   5.16399220E+01 
  3.33800090E-01   5.16297360E+01 
  3.35800710E-01   5.15607220E+01 
  3.37800500E-01   5.15476080E+01 
  3.39800130E-01   5.14313650E+01 
  3.41800390E-01   5.14041950E+01 
  3.43800290E-01   5.13429430E+01 
  3.45800340E-01   5.12226630E+01 
  3.47800460E-01   5.11760400E+01 
  3.49800870E-01   5.11463390E+01 
  3.51800630E-01   5.11523280E+01 
  3.53800040E-01   5.11797120E+01 
  3.55800690E-01   5.12091250E+01 
  3.57800130E-01   5.12369360E+01 
  3.59800720E-01   5.13720230E+01 
  3.61800010E-01   5.14761460E+01 
  3.63800400E-01   5.14662440E+01 
  3.65800710E-01   5.15225740E+01 
  3.67800010E-01   5.16220570E+01 
  3.69800100E-01   5.18144780E+01 
  3.71800630E-01   5.18288340E+01 
  3.73800940E-01   5.18989200E+01 
  3.75800090E-01   5.19816100E+01 
  3.77800510E-01   5.20148430E+01 
  3.79800950E-01   5.20839940E+01 
  3.81800100E-01   5.21642150E+01 
  3.83800160E-01   5.22450030E+01 
  3.85800670E-01   5.23620210E+01 
  3.87800490E-01   5.25229630E+01 
  3.89800250E-01   5.27593290E+01 
  3.91800900E-01   5.27889570E+01 
  3.93800330E-01   5.27857060E+01 
  3.95800140E-01   5.28009590E+01 
  3.97800590E-01   5.27878660E+01 
  3.99800030E-01   5.27704520E+01 
  4.01800720E-01   5.28123210E+01 
  4.03800840E-01   5.27235120E+01 
  4.05801020E-01   5.26761130E+01 
  4.07800950E-01   5.26166900E+01 
  4.09800510E-01   5.26186560E+01 
  4.11800060E-01   5.27189890E+01 
  4.13800720E-01   5.28079110E+01 
  4.15800700E-01   5.28401090E+01 
  4.17800550E-01   5.27479180E+01 
  4.19800610E-01   5.27664580E+01 
  4.21800110E-01   5.28737290E+01 
  4.23800830E-01   5.29274120E+01 
  4.25800600E-01   5.30042240E+01 
  4.27800040E-01   5.29444140E+01 
  4.29800300E-01   5.29297560E+01 
  4.31800390E-01   5.29248370E+01 
  4.33800270E-01   5.29044490E+01 
  4.35800190E-01   5.29530450E+01 
  4.37800200E-01   5.29035860E+01 
  4.39800930E-01   5.28632860E+01 
  4.41800200E-01   5.27751270E+01 
  4.43800250E-01   5.28546310E+01 
  4.45800030E-01   5.28847010E+01 
  4.47800280E-01   5.29209170E+01 
  4.49800320E-01   5.30143560E+01 
  4.51800370E-01   5.31271080E+01 
  4.53800440E-01   5.32243160E+01 
  4.55800270E-01   5.32492810E+01 
  4.57800020E-01   5.34090420E+01 
  4.59800450E-01   5.33122680E+01 
  4.61800430E-01   5.32913250E+01 
  4.63800510E-01   5.33633690E+01 
  4.65800240E-01   5.34715690E+01 
  4.67800170E-01   5.34274840E+01 
  4.69800130E-01   5.34516560E+01 
  4.71800710E-01   5.33587570E+01 
  4.73800000E-01   5.34285420E+01 
  4.75800550E-01   5.35473620E+01 
  4.77800030E-01   5.35919010E+01 
  4.79800570E-01   5.36924860E+01 
  4.81800520E-01   5.36541330E+01 
  4.83800190E-01   5.36549680E+01 
  4.85800360E-01   5.37039410E+01 
  4.87800010E-01   5.37557590E+01 
  4.89800780E-01   5.37706170E+01 
  4.91800370E-01   5.38019910E+01 
  4.93800450E-01   5.36828350E+01 
  4.95800080E-01   5.37142800E+01 
  4.97800560E-01   5.36525580E+01 
  4.99800330E-01   5.35462770E+01 
  5.01800210E-01   5.36503370E+01 
  5.03800420E-01   5.36698200E+01 
  5.05800520E-01   5.37031100E+01 
  5.07800400E-01   5.36626730E+01 
  5.09800010E-01   5.36599000E+01 
  5.11800250E-01   5.35926790E+01 
  5.13800120E-01   5.35966660E+01 
  5.15800460E-01   5.35458990E+01 
  5.17800030E-01   5.35368410E+01 
  5.19800550E-01   5.34683370E+01 
  5.21800070E-01   5.33821330E+01 
  5.23800350E-01   5.33011170E+01 
  5.25800530E-01   5.33038350E+01 
  5.27800240E-01   5.33148360E+01 
  5.29800070E-01   5.32194840E+01 
  5.31800650E-01   5.31250580E+01 
  5.33800160E-01   5.30505380E+01 
  5.35800290E-01   5.31488360E+01 
  5.37800540E-01   5.32102760E+01 
  5.39800700E-01   5.32329510E+01 
  5.41800290E-01   5.33240560E+01 
  5.43800170E-01   5.32916410E+01 
  5.45800360E-01   5.33821750E+01 
  5.47800250E-01   5.33912440E+01 
  5.49800110E-01   5.35510600E+01 
  5.51800310E-01   5.35414290E+01 
  5.53800380E-01   5.35797620E+01 
  5.55800050E-01   5.36566800E+01 
  5.57800400E-01   5.37498410E+01 
  5.59800380E-01   5.36823350E+01 
  5.61800320E-01   5.39741980E+01 
  5.63800080E-01   5.38958300E+01 
  5.65800630E-01   5.39747310E+01 
  5.67800450E-01   5.41325460E+01 
  5.69800560E-01   5.41167620E+01 
  5.71800110E-01   5.41222360E+01 
  5.73800120E-01   5.42817750E+01 
  5.75800220E-01   5.42681840E+01 
  5.77800030E-01   5.45225360E+01 
  5.79800210E-01   5.44018430E+01 
  5.81800370E-01   5.44473610E+01 
  5.83800190E-01   5.43195260E+01 
  5.85800010E-01   5.43730440E+01 
  5.87800330E-01   5.44730090E+01 
  5.89800580E-01   5.45065560E+01 
  5.91800020E-01   5.44981570E+01 
  5.93800390E-01   5.46656700E+01 
  5.95800020E-01   5.46115870E+01 
  5.97800550E-01   5.46973740E+01 
  5.99800310E-01   5.47557060E+01 
  6.01800030E-01   5.46111590E+01 
  6.03800130E-01   5.45479190E+01 
  6.05800490E-01   5.43758180E+01 
  6.07800160E-01   5.43134260E+01 
  6.09800620E-01   5.44158180E+01 
  6.11800080E-01   5.45548940E+01 
  6.13800680E-01   5.46582410E+01 
  6.15800400E-01   5.47475920E+01 
  6.17800410E-01   5.47555170E+01 
  6.19800050E-01   5.48338180E+01 
  6.21800370E-01   5.47712650E+01 
  6.23800500E-01   5.48967330E+01 
  6.25800210E-01   5.48402210E+01 
  6.27800070E-01   5.47631000E+01 
  6.29800110E-01   5.46549340E+01 
  6.31800000E-01   5.47422710E+01 
  6.33800510E-01   5.47811950E+01 
  6.35800110E-01   5.48495330E+01 
  6.37800170E-01   5.48157750E+01 
  6.39800500E-01   5.48542180E+01 
  6.41800230E-01   5.48349170E+01 
  6.43800030E-01   5.48986840E+01 
  6.45800110E-01   5.48880230E+01 
  6.47800090E-01   5.49031920E+01 
  6.51800540E-01   5.50022680E+01 
  6.53800350E-01   5.50421900E+01 
  6.55800530E-01   5.50221390E+01 
  6.59800000E-01   5.50503450E+01 
  6.61800500E-01   5.50737560E+01 
  6.63800490E-01   5.50539720E+01 
  6.65800560E-01   5.51306760E+01 
  6.67800210E-01   5.51816420E+01 
